Day fraction since midnight on 	pH probe (pH)	Source pressure (Pa)
0.6650017021	7.0112447739	0.0000000000
0.6650132773	7.0229959488	0.0000000000
0.6650248502	7.0270633698	0.0000000000
0.6650364259	7.0301995277	0.0000000000
0.6650480025	7.0427107811	0.0000000000
0.6650595666	7.0556797981	0.0000000000
0.6650711482	7.0657687187	0.0000000000
0.6650827176	7.0703039169	0.0000000000
0.6650942974	7.0765333176	0.0000000000
0.6651058828	7.0855484009	0.0000000000
0.6651174452	7.0964288712	0.0000000000
0.6651290314	7.1063871384	0.0000000000
0.6651405980	7.1111383438	0.0000000000
0.6651521603	7.1271615028	0.0000000000
0.6651637425	7.1446614265	0.0000000000
0.6651753185	7.1528987885	0.0000000000
0.6651868825	7.1638321877	0.0000000000
0.6651984624	7.1816954613	0.0000000000
0.6652100515	7.1926903725	0.0000000000
0.6652216127	7.1957097054	0.0000000000
0.6652331890	7.1984462738	0.0000000000
0.6652447629	7.2083697319	0.0000000000
0.6652563386	7.2169542313	0.0000000000
0.6652679108	7.2261505127	0.0000000000
0.6652794856	7.2385993004	0.0000000000
0.6652910611	7.2420802116	0.0000000000
0.6653026341	7.2465419769	0.0000000000
0.6653142094	7.2562112808	0.0000000000
0.6653257818	7.2743225098	0.0000000000
0.6653373561	7.2889318466	0.0000000000
0.6653489302	7.3031716347	0.0000000000
0.6653605068	7.3162341118	0.0000000000
t = 0
0.6653720798	7.3256344795	0.0000000000
0.6653836532	7.3299856186	0.0000000000
0.6653952274	7.3368449211	0.0000000000
0.6654068017	7.3424453735	0.0000000000
0.6654183775	7.3437724113	0.0000000000
0.6654299518	7.3418598175	0.0000000000
0.6654415249	7.3596429825	0.0000000000
0.6654530997	7.3625588417	0.0000000000
0.6654646739	7.3647451401	0.0000000000
0.6654762598	7.3666753769	0.0000000000
0.6654878219	7.3715367317	0.0000000000
0.6654993983	7.3751368523	0.0000000000
0.6655109717	7.3742499352	0.0000000000
0.6655225477	7.3799619675	0.0000000000
0.6655341331	7.3825812340	0.0000000000
0.6655456974	7.3871674538	0.0000000000
0.6655572682	7.3875598907	0.0000000000
0.6655688425	7.3880839348	0.0000000000
0.6655804182	7.3807549477	0.0000000000
0.6655919902	7.3810071945	0.0000000000
0.6656035564	7.3846759796	0.0000000000
0.6656151395	7.3852524757	0.0000000000
0.6656267143	7.3818578720	0.0000000000
0.6656382884	7.3793692589	0.0000000000
0.6656498616	7.3807172775	0.0000000000
0.6656614343	7.3828845024	0.0000000000
0.6656730101	7.3865103722	0.0000000000
0.6656845847	7.3889231682	0.0000000000
0.6656961595	7.3884234428	0.0000000000
0.6657077345	7.3812718391	0.0000000000
0.6657193105	7.3753933907	0.0000000000
0.6657308824	7.3755297661	0.0000000000
0.6657424564	7.3709564209	0.0000000000
0.6657540322	7.3695359230	0.0000000000
0.6657656075	7.3718624115	0.0000000000
0.6657771707	7.3735504150	0.0000000000
0.6657887543	7.3690533638	0.0000000000
0.6658003269	7.3697957993	0.0000000000
0.6658119014	7.3729825020	0.0000000000
0.6658234858	7.3747749329	0.0000000000
0.6658350504	7.3790960312	0.0000000000
t = 0
0.6658466256	7.3795828819	0.0000000000
0.6658581993	7.3764190674	0.0000000000
0.6658697753	7.3730516434	0.0000000000
0.6658813479	7.3709220886	0.0000000000
0.6658929214	7.3696937561	0.0000000000
0.6659044966	7.3623495102	0.0000000000
0.6659160727	7.3577656746	0.0000000000
0.6659276463	7.3498992920	0.0000000000
0.6659392191	7.3456335068	0.0000000000
0.6659507931	7.3415379524	0.0000000000
0.6659623668	7.3348999023	0.0000000000
0.6659739417	7.3345184326	0.0000000000
0.6659855166	7.3354835510	0.0000000000
0.6659970907	7.3378443718	0.0000000000
0.6660086763	7.3386807442	0.0000000000
0.6660202391	7.3348145485	0.0000000000
0.6660318128	7.3285689354	0.0000000000
0.6660433877	7.3274526596	0.0000000000
0.6660549622	7.3199739456	0.0000000000
0.6660665369	7.3168716431	0.0000000000
0.6660781100	7.3132629395	0.0000000000
0.6660896966	7.2994661331	0.0000000000
0.6661012592	7.2998504639	0.0000000000
0.6661128338	7.3033266068	0.0000000000
0.6661244075	7.3041334152	0.0000000000
0.6661359733	7.3059082031	0.0000000000
0.6661475547	7.3035402298	0.0000000000
0.6661591444	7.3010687828	0.0000000000
0.6661706961	7.2945094109	0.0000000000
0.6661822719	7.2793555260	0.0000000000
0.6661938525	7.2672748566	0.0000000000
0.6662054267	7.2628631592	0.0000000000
0.6662169933	7.2627530098	0.0000000000
0.6662285748	7.2608985901	0.0000000000
0.6662401505	7.2651033401	0.0000000000
0.6662517252	7.2721691132	0.0000000000
0.6662632992	7.2688961029	0.0000000000
0.6662748733	7.2687916756	0.0000000000
0.6662864480	7.2610540390	0.0000000000
0.6662980250	7.2531824112	0.0000000000
0.6663095951	7.2505860329	0.0000000000
0.6663211704	7.2494387627	0.0000000000
0.6663327445	7.2442860603	0.0000000000
0.6663443185	7.2471561432	0.0000000000
0.6663558932	7.2497663498	0.0000000000
0.6663674734	7.2460436821	0.0000000000
0.6663790528	7.2386679649	0.0000000000
0.6663906160	7.2351260185	0.0000000000
0.6664021906	7.2330155373	0.0000000000
0.6664137650	7.2323851585	0.0000000000
0.6664253379	7.2369179726	0.0000000000
0.6664369132	7.2319188118	0.0000000000
0.6664484874	7.2260017395	0.0000000000
0.6664600608	7.2198023796	0.0000000000
0.6664716356	7.2150068283	0.0000000000
0.6664832054	7.2115945816	0.0000000000
0.6664947849	7.2070279121	0.0000000000
0.6665063585	7.2029261589	0.0000000000
0.6665179331	7.2045464516	0.0000000000
0.6665295098	7.2067008018	0.0000000000
0.6665410821	7.2037110329	0.0000000000
0.6665526553	7.2008442879	0.0000000000
0.6665642293	7.1989331245	0.0000000000
0.6665758041	7.1978602409	0.0000000000
0.6665873784	7.1949076653	0.0000000000
0.6665989529	7.1936554909	0.0000000000
0.6666105273	7.1931381226	0.0000000000
0.6666221048	7.1952061653	0.0000000000
0.6666336754	7.1909642220	0.0000000000
0.6666452496	7.1845216751	0.0000000000
0.6666568374	7.1818332672	0.0000000000
0.6666683988	7.1774005890	0.0000000000
0.6666799723	7.1782174110	0.0000000000
0.6666915479	7.1822643280	0.0000000000
0.6667031206	7.1765618324	0.0000000000
0.6667146955	7.1649794579	0.0000000000
0.6667262695	7.1525187492	0.0000000000
0.6667378439	7.1458849907	0.0000000000
0.6667494180	7.1421627998	0.0000000000
0.6667609924	7.1314954758	0.0000000000
0.6667725668	7.1284108162	0.0000000000
0.6667841406	7.1306595802	0.0000000000
0.6667957161	7.1320643425	0.0000000000
0.6668072893	7.1257619858	0.0000000000
0.6668188636	7.1202940941	0.0000000000
0.6668304385	7.1191740036	0.0000000000
0.6668420123	7.1064114571	0.0000000000
0.6668535977	7.1063871384	0.0000000000
0.6668651614	7.1003365517	0.0000000000
0.6668767355	7.0968055725	0.0000000000
0.6668883089	7.0938692093	0.0000000000
0.6668998833	7.0889472961	0.0000000000
0.6669114630	7.0813302994	0.0000000000
0.6669230246	7.0823850632	0.0000000000
0.6669346070	7.0790896416	0.0000000000
0.6669461821	7.0777111053	0.0000000000
0.6669577670	7.0816745758	0.0000000000
0.6669693255	7.0768566132	0.0000000000
0.6669808950	7.0733242035	0.0000000000
0.6669924898	7.0738682747	0.0000000000
0.6670040522	7.0737509727	0.0000000000
0.6670156272	7.0756430626	0.0000000000
0.6670272014	7.0781593323	0.0000000000
0.6670387784	7.0766944885	0.0000000000
0.6670503492	7.0726413727	0.0000000000
0.6670619155	7.0707135201	0.0000000000
0.6670734990	7.0710201263	0.0000000000
0.6670850647	7.0673518181	0.0000000000
0.6670966381	7.0641946793	0.0000000000
0.6671082126	7.0619773865	0.0000000000
0.6671197955	7.0569109917	0.0000000000
0.6671313688	7.0569767952	0.0000000000
0.6671429439	7.0562729836	0.0000000000
0.6671545183	7.0474152565	0.0000000000
0.6671661062	7.0405049324	0.0000000000
0.6671776671	7.0381035805	0.0000000000
0.6671892540	7.0378108025	0.0000000000
0.6672008154	7.0436153412	0.0000000000
0.6672123896	7.0445718765	0.0000000000
0.6672239753	7.0412631035	0.0000000000
0.6672355381	7.0381207466	0.0000000000
0.6672471142	7.0311646461	0.0000000000
0.6672586859	7.0254592896	0.0000000000
0.6672702603	7.0248398781	0.0000000000
0.6672818338	7.0286502838	0.0000000000
0.6672934060	7.0254082680	0.0000000000
0.6673049950	7.0282177925	0.0000000000
0.6673165573	7.0287528038	0.0000000000
0.6673281307	6.6247768402	0.0000000000
0.6673397167	6.8867516518	0.0000000000
0.6673512789	6.9526638985	0.0000000000
0.6673628463	6.9790277481	0.0000000000
0.6673744407	6.9885816574	0.0000000000
0.6673860045	6.9912967682	0.0000000000
0.6673975677	6.9908871651	0.0000000000
0.6674091504	6.9925107956	0.0000000000
0.6674207160	6.9912266731	0.0000000000
0.6674322988	6.9870996475	0.0000000000
0.6674438723	6.9834814072	0.0000000000
0.6674554462	6.9830207825	0.0000000000
0.6674670215	6.9823431969	0.0000000000
0.6674785946	6.9842324257	0.0000000000
0.6674901696	6.9830327034	0.0000000000
0.6675017437	6.9810509682	0.0000000000
0.6675133183	6.9777421951	0.0000000000
0.6675248920	6.9718265533	0.0000000000
0.6675364666	6.9686775208	0.0000000000
0.6675480391	6.9704275131	0.0000000000
0.6675596105	6.9666051865	0.0000000000
0.6675711879	6.9632205963	0.0000000000
0.6675827543	6.9636015892	0.0000000000
0.6675943369	6.9659376144	0.0000000000
0.6676059105	6.9644207954	0.0000000000
0.6676174852	6.9647655487	0.0000000000
0.6676290598	6.9653859138	0.0000000000
0.6676406344	6.9539260864	0.0000000000
0.6676522077	6.9423398972	0.0000000000
0.6676637835	6.9386749268	0.0000000000
0.6676753547	6.9389100075	0.0000000000
0.6676869292	6.9331946373	0.0000000000
0.6676985040	6.9223203659	0.0000000000
0.6677100794	6.9149374962	0.0000000000
0.6677216527	6.9076585770	0.0000000000
0.6677332268	6.9045877457	0.0000000000
0.6677448006	6.9051742554	0.0000000000
0.6677563751	6.9142036438	0.0000000000
0.6677679492	6.9245934486	0.0000000000
0.6677795234	6.9284553528	0.0000000000
0.6677910953	6.9276304245	0.0000000000
0.6678026718	6.9266285896	0.0000000000
0.6678142496	6.9184947014	0.0000000000
0.6678258221	6.9119248390	0.0000000000
0.6678373942	6.9082288742	0.0000000000
0.6678489800	6.9062938690	0.0000000000
0.6678605429	6.9026489258	0.0000000000
0.6678721151	6.8541865349	0.0000000000
0.6678836908	6.8526124954	0.0000000000
0.6678952643	6.8640837669	0.0000000000
0.6679068310	6.8729572296	0.0000000000
0.6679184133	6.8724822998	0.0000000000
0.6679299867	6.8664388657	0.0000000000
0.6679415609	6.8639016151	0.0000000000
0.6679531324	6.8641519547	0.0000000000
0.6679647099	6.8663644791	0.0000000000
0.6679762841	6.8698801994	0.0000000000
0.6679878582	6.8674674034	0.0000000000
0.6679994318	6.8612680435	0.0000000000
0.6680110064	6.8551459312	0.0000000000
0.6680225915	6.8489937782	0.0000000000
0.6680341538	6.8473610878	0.0000000000
0.6680457280	6.8505792618	0.0000000000
0.6680573143	6.8542089462	0.0000000000
0.6680688776	6.8570022583	0.0000000000
0.6680804504	6.8580088615	0.0000000000
0.6680920241	6.8456888199	0.0000000000
0.6681035998	6.8461503983	0.0000000000
0.6681151733	6.8471903801	0.0000000000
0.6681267475	6.8440132141	0.0000000000
0.6681383228	6.8427038193	0.0000000000
0.6681498970	6.8392915726	0.0000000000
0.6681614698	6.8367128372	0.0000000000
0.6681730448	6.8297319412	0.0000000000
0.6681846180	6.8334708214	0.0000000000
0.6681961926	6.8201799393	0.0000000000
0.6682077671	6.8052906990	0.0000000000
0.6682193414	6.8125114441	0.0000000000
0.6682309155	6.8179426193	0.0000000000
0.6682424882	6.8187956810	0.0000000000
0.6682540744	6.8130283356	0.0000000000
0.6682656387	6.8173623085	0.0000000000
0.6682772110	6.8201608658	0.0000000000
0.6682887863	6.8189167976	0.0000000000
0.6683003752	6.8178706169	0.0000000000
0.6683119339	6.8206558228	0.0000000000
0.6683235079	6.8158779144	0.0000000000
0.6683350829	6.8151998520	0.0000000000
0.6683466681	6.8170437813	0.0000000000
0.6683582312	6.8168673515	0.0000000000
0.6683698048	6.8142056465	0.0000000000
0.6683813778	6.8050589561	0.0000000000
0.6683929538	6.7890224457	0.0000000000
0.6684045267	6.7824254036	0.0000000000
0.6684161016	6.7830600739	0.0000000000
0.6684276761	6.7883677483	0.0000000000
0.6684392495	6.7886776924	0.0000000000
0.6684508245	6.7777695656	0.0000000000
0.6684623978	6.7760500908	0.0000000000
0.6684739725	6.7713241577	0.0000000000
0.6684855461	6.7712206841	0.0000000000
0.6684971345	6.7678432465	0.0000000000
0.6685087090	6.7693080902	0.0000000000
0.6685202686	6.7578692436	0.0000000000
0.6685318426	6.7678251266	0.0000000000
0.6685434184	6.7749261856	0.0000000000
0.6685549919	6.7715964317	0.0000000000
0.6685665660	6.7664771080	0.0000000000
0.6685781400	6.6912755966	0.0000000000
0.6685897136	6.7215814590	0.0000000000
0.6686012885	6.7384610176	0.0000000000
0.6686128624	6.7387785912	0.0000000000
0.6686244377	6.7430276871	0.0000000000
0.6686360106	6.7484636307	0.0000000000
0.6686475854	6.7442169189	0.0000000000
0.6686591586	6.7433381081	0.0000000000
0.6686707246	6.7437987328	0.0000000000
0.6686823070	6.7448024750	0.0000000000
0.6686938810	6.7490377426	0.0000000000
0.6687054566	6.7487144470	0.0000000000
0.6687170299	6.7440376282	0.0000000000
0.6687286038	6.7421979904	0.0000000000
0.6687401783	6.7422347069	0.0000000000
0.6687517515	6.7370853424	0.0000000000
0.6687633341	6.7350487709	0.0000000000
0.6687749007	6.7413415909	0.0000000000
0.6687864661	6.7432017326	0.0000000000
0.6687980498	6.7405457497	0.0000000000
0.6688096379	6.7354569435	0.0000000000
0.6688211985	6.7245678902	0.0000000000
0.6688327733	6.7213139534	0.0000000000
0.6688443480	6.7209692001	0.0000000000
0.6688559200	6.7208986282	0.0000000000
0.6688674929	6.7197723389	0.0000000000
0.6688790705	6.7159199715	0.0000000000
0.6688906455	6.7117667198	0.0000000000
0.6689022163	6.7058897018	0.0000000000
0.6689137908	6.6950163841	0.0000000000
0.6689253678	6.6863651276	0.0000000000
0.6689369392	6.6792793274	0.0000000000
0.6689485141	6.6770420074	0.0000000000
0.6689600872	6.6764807701	0.0000000000
0.6689716607	6.6751842499	0.0000000000
0.6689832350	6.6699075699	0.0000000000
0.6689948009	6.6683926582	0.0000000000
0.6690063837	6.6648926735	0.0000000000
0.6690179569	6.6679830551	0.0000000000
0.6690295238	6.6682562828	0.0000000000
0.6690411032	6.6638908386	0.0000000000
0.6690526795	6.6564607620	0.0000000000
0.6690642547	6.6602501869	0.0000000000
0.6690758279	6.6635804176	0.0000000000
0.6690874025	6.6694426537	0.0000000000
0.6690989772	6.6710453033	0.0000000000
0.6691105511	6.6704063416	0.0000000000
0.6691221333	6.6687011719	0.0000000000
0.6691336995	6.6643142700	0.0000000000
0.6691452649	6.6560549736	0.0000000000
0.6691568478	6.6594233513	0.0000000000
0.6691684213	6.6503386497	0.0000000000
0.6691799961	6.6430759430	0.0000000000
0.6691915697	6.6421818733	0.0000000000
0.6692031442	6.6362686157	0.0000000000
0.6692147182	6.6325240135	0.0000000000
0.6692262927	6.6322708130	0.0000000000
0.6692378669	6.6318225861	0.0000000000
0.6692494422	6.6273589134	0.0000000000
0.6692610182	6.6261010170	0.0000000000
0.6692725894	6.6253395081	0.0000000000
0.6692841624	6.6227970123	0.0000000000
0.6692957386	6.6241364479	0.0000000000
0.6693073120	6.6238865852	0.0000000000
0.6693188861	6.6201901436	0.0000000000
0.6693304592	6.6147770882	0.0000000000
0.6693420345	6.6157441139	0.0000000000
0.6693536085	6.6180362701	0.0000000000
0.6693651824	6.6058182716	0.0000000000
0.6693767567	6.6094884872	0.0000000000
0.6693883308	6.6091437340	0.0000000000
0.6693999053	6.5946855545	0.0000000000
0.6694114789	6.5883107185	0.0000000000
0.6694230453	6.5839080811	0.0000000000
0.6694346278	6.5800886154	0.0000000000
0.6694462013	6.5829615593	0.0000000000
0.6694577757	6.5844316483	0.0000000000
0.6694693498	6.5794687271	0.0000000000
0.6694809364	6.5824670792	0.0000000000
0.6694924979	6.5808367729	0.0000000000
0.6695040754	6.5741090775	0.0000000000
0.6695156580	6.5737986565	0.0000000000
0.6695272227	6.5719971657	0.0000000000
0.6695387945	6.5721340179	0.0000000000
0.6695503705	6.5736265182	0.0000000000
0.6695619341	6.5641813278	0.0000000000
0.6695735084	6.5578236580	0.0000000000
0.6695850915	6.5542564392	0.0000000000
0.6695966663	6.5560140610	0.0000000000
0.6696082389	6.5519981384	0.0000000000
0.6696198131	6.5516371727	0.0000000000
0.6696313881	6.5481562614	0.0000000000
0.6696429654	6.5447440147	0.0000000000
0.6696545371	6.5453429222	0.0000000000
0.6696661084	6.5433468819	0.0000000000
0.6696776839	6.5424489975	0.0000000000
0.6696892582	6.5437788963	0.0000000000
0.6697008329	6.5408148766	0.0000000000
0.6697124075	6.5413489342	0.0000000000
0.6697239812	6.5409407616	0.0000000000
0.6697355555	6.5368509293	0.0000000000
0.6697471289	6.5345072746	0.0000000000
0.6697587043	6.5394878387	0.0000000000
0.6697702780	6.5369133949	0.0000000000
0.6697818525	6.5370922089	0.0000000000
0.6697934254	6.5341835022	0.0000000000
0.6698050000	6.5300097466	0.0000000000
0.6698165736	6.5340123177	0.0000000000
0.6698281488	6.5372400284	0.0000000000
0.6698397226	6.5270161629	0.0000000000
0.6698512961	6.5252246857	0.0000000000
0.6698628711	6.5304331779	0.0000000000
0.6698744455	6.5336976051	0.0000000000
0.6698860195	6.5295586586	0.0000000000
0.6698975927	6.5285544395	0.0000000000
0.6699091682	6.5298886299	0.0000000000
0.6699207419	6.5342516899	0.0000000000
0.6699323154	6.5349850655	0.0000000000
0.6699438812	6.5286712646	0.0000000000
0.6699554643	6.5247187614	0.0000000000
0.6699670516	6.5213360786	0.0000000000
0.6699786090	6.5200200081	0.0000000000
0.6699901858	6.5181703568	0.0000000000
0.6700017601	6.5115356445	0.0000000000
0.6700133337	6.5052766800	0.0000000000
0.6700249219	6.5000586510	0.0000000000
0.6700364830	6.5020685196	0.0000000000
0.6700480562	6.5075974464	0.0000000000
0.6700596448	6.5076584816	0.0000000000
0.6700712057	6.5074605942	0.0000000000
0.6700827796	6.5108046532	0.0000000000
0.6700943552	6.5123972893	0.0000000000
0.6701059274	6.5090818405	0.0000000000
0.6701175017	6.5049180984	0.0000000000
0.6701290764	6.5031604767	0.0000000000
0.6701406527	6.4995069504	0.0000000000
0.6701522173	6.4885535240	0.0000000000
0.6701637997	6.4838075638	0.0000000000
0.6701753657	6.4856014252	0.0000000000
0.6701869483	6.4861168861	0.0000000000
0.6701985229	6.4844665527	0.0000000000
0.6702100957	6.4841170311	0.0000000000
0.6702216700	6.4854793549	0.0000000000
0.6702332440	6.4860177040	0.0000000000
0.6702448197	6.4838075638	0.0000000000
0.6702563937	6.4752097130	0.0000000000
0.6702679664	6.4678549767	0.0000000000
0.6702795406	6.4671950340	0.0000000000
0.6702911127	6.4716258049	0.0000000000
0.6703026890	6.4676775932	0.0000000000
0.6703142632	6.4559917450	0.0000000000
0.6703258376	6.4473595619	0.0000000000
0.6703374204	6.4431376457	0.0000000000
0.6703489856	6.4492549896	0.0000000000
0.6703605605	6.4544253349	0.0000000000
0.6703721336	6.4497842789	0.0000000000
0.6703836993	6.4395966530	0.0000000000
0.6703952821	6.4290752411	0.0000000000
0.6704068566	6.4255428314	0.0000000000
0.6704184304	6.4210648537	0.0000000000
0.6704300039	6.4202461243	0.0000000000
0.6704415794	6.4208726883	0.0000000000
0.6704531518	6.4223618507	0.0000000000
0.6704647272	6.4369163513	0.0000000000
0.6704763013	6.4421896935	0.0000000000
0.6704878760	6.4397425652	0.0000000000
0.6704994503	6.4239745140	0.0000000000
0.6705110281	6.4206485748	0.0000000000
0.6705225979	6.4182152748	0.0000000000
0.6705341715	6.4193587303	0.0000000000
0.6705457453	6.4182491302	0.0000000000
0.6705573196	6.4222168922	0.0000000000
0.6705688941	6.4236125946	0.0000000000
0.6705804795	6.4217171669	0.0000000000
0.6705920426	6.4105024338	0.0000000000
0.6706036170	6.4084467888	0.0000000000
0.6706151914	6.4061098099	0.0000000000
0.6706267668	6.4022607803	0.0000000000
0.6706383388	6.4008097649	0.0000000000
0.6706499130	6.3985037804	0.0000000000
0.6706614905	6.4040532112	0.0000000000
0.6706730601	6.4081816673	0.0000000000
0.6706846348	6.4034352303	0.0000000000
0.6706962094	6.3939027786	0.0000000000
0.6707077759	6.3861346245	0.0000000000
0.6707193576	6.3802967072	0.0000000000
0.6707309319	6.3807883263	0.0000000000
0.6707424990	6.3793773651	0.0000000000
